 
 => Data file name: D:\liszcz\ML_NaCl_20-137deg_0p01_60s_36min_20161012.dat
 => Instrm        :    1
 => Lambda(1&2)   :   1.54056  1.54433
 => Numb.of.points:        86
 => Numb.of.peaks :         1
    2Theta     Yobs     Ycalc  Yobs-Ycal    Backg    Bragg     Posr  Intensity   FWHM    Eta
   26.8408    714.73    701.94   -685.66    688.93   27.3473   -139.69     377.98  0.1267  0.4798
   26.8538    679.62    702.19   -721.01    688.52
   26.8668    661.07    702.48   -739.86    688.11
   26.8798    684.88    702.84   -716.40    687.69
   26.8928    662.21    703.26   -739.49    687.28
   26.9058    676.37    703.74   -725.82    686.86
   26.9188    716.45    704.31   -686.31    686.45
   26.9318    692.66    704.96   -710.74    686.03
   26.9448    664.07    705.71   -740.09    685.62
   26.9578    679.75    706.58   -725.27    685.21
   26.9708    715.97    707.56   -690.03    684.79
   26.9838    708.24    708.69   -698.90    684.38
   26.9968    701.02    709.98   -707.41    683.96
   27.0098    666.93    711.46   -742.97    683.55
   27.0228    695.94    713.15   -715.65    683.13
   27.0358    736.41    715.08   -677.11    682.72
   27.0488    720.36    717.30   -695.39    682.31
   27.0618    719.69    719.85   -698.60    681.89
   27.0748    728.62    722.79   -692.61    681.48
   27.0878    730.21    726.19   -694.42    681.06
   27.1008    719.16    730.15   -709.44    680.65
   27.1138    702.85    734.80   -730.39    680.23
   27.1268    693.00    740.32   -745.77    679.82
   27.1398    719.82    747.02   -725.64    679.41
   27.1528    759.59    755.38   -694.24    678.99
   27.1658    809.25    766.23   -655.42    678.58
   27.1788    850.66    780.96   -628.75    678.16
   27.1918    860.53    801.82   -639.73    677.75
   27.2048    888.19    832.18   -642.43    677.33
   27.2178    949.72    876.80   -625.53    676.92
   27.2308   1020.51    941.75   -619.69    676.51
   27.2438   1120.30   1033.90   -612.04    676.09
   27.2568   1260.42   1159.73   -597.76    675.68
   27.2698   1393.37   1323.75   -628.83    675.26
   27.2828   1494.37   1526.40   -730.48    674.85
   27.2958   1653.45   1762.11   -807.11    674.43
   27.3088   1851.42   2016.93   -863.96    674.02
   27.3218   2095.52   2266.59   -869.52    673.61
   27.3348   2455.25   2477.05   -720.24    673.19
   27.3478   2703.39   2613.60   -608.66    672.78
   27.3608   2793.78   2658.70   -563.36    672.36
   27.3738   2773.83   2621.38   -546.00    671.95
   27.3868   2642.99   2524.68   -580.13    671.54
   27.3998   2384.86   2386.92   -700.51    671.12
   27.4128   2148.46   2216.28   -766.27    670.71
   27.4258   2008.44   2018.55   -708.56    670.29
   27.4388   1866.83   1806.12   -637.74    669.88
   27.4518   1647.81   1596.39   -647.03    669.46
   27.4648   1386.85   1404.51   -716.11    669.05
   27.4778   1181.59   1239.31   -756.17    668.64
   27.4908   1040.45   1103.91   -761.90    668.22
   27.5038    912.49    997.48   -783.43    667.81
   27.5168    863.59    916.93   -751.79    667.39
   27.5298    819.11    857.89   -737.23    666.98
   27.5428    752.56    815.66   -761.55    666.56
   27.5558    764.42    785.81   -719.84    666.15
   27.5688    780.36    764.66   -682.74    665.74
   27.5818    784.40    749.36   -663.41    665.32
   27.5948    765.33    737.93   -671.04    664.91
   27.6078    741.83    729.02   -685.63    664.49
   27.6208    736.01    721.79   -684.22    664.08
   27.6338    699.01    715.73   -715.17    663.66
   27.6468    699.36    710.53   -709.62    663.25
   27.6598    695.54    705.99   -708.90    662.84
   27.6728    674.24    701.98   -726.18    662.42
   27.6858    705.13    698.40   -691.71    662.01
   27.6988    689.41    695.19   -704.22    661.59
   27.7118    690.87    692.28   -699.86    661.18
   27.7248    682.42    689.65   -705.67    660.76
   27.7378    673.55    687.24   -712.14    660.35
   27.7508    641.49    685.03   -741.99    659.94
   27.7638    689.81    683.00   -691.63    659.52
   27.7768    654.55    681.11   -725.00    659.11
   27.7898    638.47    679.36   -739.34    658.69
   27.8028    656.97    677.73   -719.21    658.28
   27.8158    625.85    676.20   -748.80    657.86
   27.8288    682.98    674.77   -690.23    657.45
   27.8418    656.06    673.42   -715.80    657.04
   27.8548    657.55    672.14   -713.03    656.62
   27.8678    631.17    670.93   -738.20    656.21
   27.8808    654.93    669.77   -713.29    655.79
   27.8938    677.71    668.68   -689.41    655.38
   27.9068    634.03    667.63   -732.04    654.97
   27.9198    619.46    666.62   -745.61    654.55
   27.9328    659.21    665.66   -704.89    654.14
   27.9458    645.85    664.73   -717.33    653.72
